## w(eV)         sigma(Sm^-1)     kappa(W(mK)^-1)        L12/e(Am^-1)      L22/e^2(Wm^-1)
    0.01              349829             506.576        -6.61702e+06          1.7315e+08
    0.03              349827             506.573          -6.617e+06          1.7315e+08
    0.05              349821             506.567        -6.61697e+06          1.7315e+08
    0.07              349813             506.559        -6.61691e+06          1.7315e+08
    0.09              349801             506.548        -6.61684e+06         1.73151e+08
    0.11              349787             506.534        -6.61675e+06         1.73151e+08
    0.13              349771             506.518        -6.61664e+06         1.73151e+08
    0.15              349751             506.498        -6.61651e+06         1.73152e+08
    0.17              349729             506.476        -6.61637e+06         1.73152e+08
    0.19              349703             506.451         -6.6162e+06         1.73152e+08
    0.21              349675             506.424        -6.61602e+06         1.73153e+08
    0.23              349644             506.393        -6.61582e+06         1.73154e+08
    0.25              349611              506.36         -6.6156e+06         1.73154e+08
    0.27              349574             506.324        -6.61536e+06         1.73155e+08
    0.29              349535             506.285        -6.61511e+06         1.73155e+08
    0.31              349493             506.244        -6.61483e+06         1.73156e+08
    0.33              349448             506.199        -6.61454e+06         1.73157e+08
    0.35              349401             506.152        -6.61423e+06         1.73158e+08
    0.37              349350             506.102         -6.6139e+06         1.73159e+08
    0.39              349297             506.049        -6.61355e+06          1.7316e+08
    0.41              349241             505.994        -6.61318e+06          1.7316e+08
    0.43              349182             505.936         -6.6128e+06         1.73161e+08
    0.45              349121             505.875        -6.61239e+06         1.73162e+08
    0.47              349056             505.811        -6.61197e+06         1.73163e+08
    0.49              348989             505.744        -6.61153e+06         1.73164e+08
    0.51              348919             505.674        -6.61107e+06         1.73166e+08
    0.53              348846             505.602        -6.61059e+06         1.73167e+08
    0.55              348771             505.527        -6.61009e+06         1.73168e+08
    0.57              348692             505.449        -6.60957e+06         1.73169e+08
    0.59              348611             505.368        -6.60904e+06          1.7317e+08
    0.61              348527             505.284        -6.60848e+06         1.73171e+08
    0.63              348441             505.197        -6.60791e+06         1.73172e+08
    0.65              348351             505.108        -6.60731e+06         1.73174e+08
    0.67              348259             505.016         -6.6067e+06         1.73175e+08
    0.69              348164             504.921        -6.60607e+06         1.73176e+08
    0.71              348066             504.822        -6.60542e+06         1.73177e+08
    0.73              347965             504.722        -6.60474e+06         1.73178e+08
    0.75              347862             504.618        -6.60405e+06          1.7318e+08
    0.77              347756             504.511        -6.60334e+06         1.73181e+08
    0.79              347647             504.402        -6.60261e+06         1.73182e+08
    0.81              347535             504.289        -6.60187e+06         1.73183e+08
    0.83              347421             504.174         -6.6011e+06         1.73184e+08
    0.85              347304             504.055        -6.60031e+06         1.73186e+08
    0.87              347184             503.934         -6.5995e+06         1.73187e+08
    0.89              347061              503.81        -6.59867e+06         1.73188e+08
    0.91              346935             503.683        -6.59782e+06         1.73189e+08
    0.93              346807             503.553        -6.59695e+06          1.7319e+08
    0.95              346676              503.42        -6.59606e+06         1.73191e+08
    0.97              346542             503.284        -6.59515e+06         1.73192e+08
    0.99              346405             503.145        -6.59422e+06         1.73193e+08
    1.01              346266             503.003        -6.59327e+06         1.73194e+08
    1.03              346124             502.859         -6.5923e+06         1.73194e+08
    1.05              345979             502.711         -6.5913e+06         1.73195e+08
    1.07              345832              502.56        -6.59029e+06         1.73196e+08
    1.09              345681             502.406        -6.58926e+06         1.73196e+08
    1.11              345528             502.249         -6.5882e+06         1.73197e+08
    1.13              345372             502.089        -6.58713e+06         1.73197e+08
    1.15              345214             501.926        -6.58603e+06         1.73198e+08
    1.17              345053              501.76        -6.58491e+06         1.73198e+08
    1.19              344889             501.591        -6.58377e+06         1.73198e+08
    1.21              344722             501.419        -6.58261e+06         1.73198e+08
    1.23              344552             501.244        -6.58142e+06         1.73198e+08
    1.25              344380             501.066        -6.58022e+06         1.73198e+08
    1.27              344205             500.885        -6.57899e+06         1.73198e+08
    1.29              344028               500.7        -6.57774e+06         1.73198e+08
    1.31              343847             500.513        -6.57647e+06         1.73197e+08
    1.33              343664             500.322        -6.57518e+06         1.73197e+08
    1.35              343478             500.128        -6.57386e+06         1.73196e+08
    1.37              343290             499.931        -6.57252e+06         1.73195e+08
    1.39              343099             499.731        -6.57116e+06         1.73194e+08
    1.41              342905             499.528        -6.56978e+06         1.73193e+08
    1.43              342708             499.322        -6.56837e+06         1.73192e+08
    1.45              342509             499.112        -6.56694e+06         1.73191e+08
    1.47              342307             498.899        -6.56549e+06         1.73189e+08
    1.49              342102             498.684        -6.56401e+06         1.73187e+08
    1.51              341895             498.464        -6.56251e+06         1.73185e+08
    1.53              341684             498.242        -6.56099e+06         1.73183e+08
    1.55              341472             498.017        -6.55944e+06         1.73181e+08
    1.57              341256             497.788        -6.55787e+06         1.73178e+08
    1.59              341038             497.556        -6.55628e+06         1.73176e+08
    1.61              340817              497.32        -6.55466e+06         1.73173e+08
    1.63              340594             497.082        -6.55302e+06          1.7317e+08
    1.65              340367              496.84        -6.55135e+06         1.73167e+08
    1.67              340139             496.595        -6.54966e+06         1.73163e+08
    1.69              339907             496.346        -6.54795e+06         1.73159e+08
    1.71              339673             496.095        -6.54621e+06         1.73155e+08
    1.73              339436             495.839        -6.54444e+06         1.73151e+08
    1.75              339197             495.581        -6.54265e+06         1.73147e+08
    1.77              338954             495.319        -6.54083e+06         1.73142e+08
    1.79              338710             495.054        -6.53899e+06         1.73137e+08
    1.81              338462             494.786        -6.53713e+06         1.73132e+08
    1.83              338212             494.514        -6.53524e+06         1.73126e+08
    1.85              337959             494.239        -6.53332e+06          1.7312e+08
    1.87              337704              493.96        -6.53138e+06         1.73114e+08
    1.89              337446             493.678        -6.52941e+06         1.73108e+08
    1.91              337185             493.393        -6.52741e+06         1.73101e+08
    1.93              336922             493.104        -6.52539e+06         1.73094e+08
    1.95              336656             492.811        -6.52334e+06         1.73087e+08
    1.97              336388             492.516        -6.52127e+06         1.73079e+08
    1.99              336117             492.216        -6.51916e+06         1.73072e+08
    2.01              335843             491.914        -6.51704e+06         1.73063e+08
    2.03              335567             491.608        -6.51488e+06         1.73055e+08
    2.05              335288             491.298         -6.5127e+06         1.73046e+08
    2.07              335007             490.985        -6.51048e+06         1.73036e+08
    2.09              334722             490.668        -6.50825e+06         1.73027e+08
    2.11              334436             490.348        -6.50598e+06         1.73017e+08
    2.13              334147             490.024        -6.50369e+06         1.73006e+08
    2.15              333855             489.697        -6.50136e+06         1.72995e+08
    2.17              333560             489.366        -6.49901e+06         1.72984e+08
    2.19              333263             489.032        -6.49663e+06         1.72973e+08
    2.21              332964             488.694        -6.49423e+06         1.72961e+08
    2.23              332662             488.352        -6.49179e+06         1.72948e+08
    2.25              332357             488.007        -6.48932e+06         1.72935e+08
    2.27              332050             487.658        -6.48683e+06         1.72922e+08
    2.29              331740             487.306        -6.48431e+06         1.72908e+08
    2.31              331428              486.95        -6.48175e+06         1.72894e+08
    2.33              331113              486.59        -6.47917e+06         1.72879e+08
    2.35              330796             486.227        -6.47656e+06         1.72864e+08
    2.37              330476              485.86        -6.47392e+06         1.72849e+08
    2.39              330153              485.49        -6.47124e+06         1.72833e+08
    2.41              329828             485.115        -6.46854e+06         1.72816e+08
    2.43              329501             484.737        -6.46581e+06         1.72799e+08
    2.45              329171             484.356        -6.46304e+06         1.72782e+08
    2.47              328838             483.971        -6.46025e+06         1.72764e+08
    2.49              328503             483.582        -6.45742e+06         1.72745e+08
    2.51              328166             483.189        -6.45456e+06         1.72726e+08
    2.53              327826             482.792        -6.45167e+06         1.72706e+08
    2.55              327483             482.392        -6.44875e+06         1.72686e+08
    2.57              327138             481.988         -6.4458e+06         1.72666e+08
    2.59              326791             481.581        -6.44282e+06         1.72644e+08
    2.61              326441             481.169         -6.4398e+06         1.72622e+08
    2.63              326088             480.754        -6.43676e+06           1.726e+08
    2.65              325733             480.335        -6.43368e+06         1.72577e+08
    2.67              325376             479.912        -6.43056e+06         1.72554e+08
    2.69              325016             479.486        -6.42742e+06         1.72529e+08
    2.71              324654             479.055        -6.42424e+06         1.72505e+08
    2.73              324289             478.621        -6.42103e+06         1.72479e+08
    2.75              323922             478.183        -6.41778e+06         1.72453e+08
    2.77              323553             477.742         -6.4145e+06         1.72427e+08
    2.79              323181             477.296        -6.41119e+06         1.72399e+08
    2.81              322806             476.847        -6.40785e+06         1.72371e+08
    2.83              322429             476.393        -6.40447e+06         1.72343e+08
    2.85              322050             475.936        -6.40105e+06         1.72314e+08
    2.87              321668             475.475         -6.3976e+06         1.72284e+08
    2.89              321284             475.011        -6.39412e+06         1.72253e+08
    2.91              320898             474.542         -6.3906e+06         1.72222e+08
    2.93              320509             474.069        -6.38705e+06          1.7219e+08
    2.95              320118             473.593        -6.38346e+06         1.72157e+08
    2.97              319724             473.113        -6.37984e+06         1.72124e+08
    2.99              319328             472.629        -6.37618e+06          1.7209e+08
    3.01              318930              472.14        -6.37249e+06         1.72055e+08
    3.03              318529             471.649        -6.36876e+06         1.72019e+08
    3.05              318126             471.153        -6.36499e+06         1.71983e+08
    3.07              317720             470.653        -6.36119e+06         1.71946e+08
    3.09              317313             470.149        -6.35736e+06         1.71908e+08
    3.11              316902             469.642        -6.35348e+06         1.71869e+08
    3.13              316490              469.13        -6.34957e+06          1.7183e+08
    3.15              316075             468.615        -6.34562e+06          1.7179e+08
    3.17              315658             468.096        -6.34164e+06         1.71749e+08
    3.19              315239             467.572        -6.33762e+06         1.71707e+08
    3.21              314817             467.045        -6.33356e+06         1.71664e+08
    3.23              314393             466.514        -6.32946e+06         1.71621e+08
    3.25              313966             465.979        -6.32533e+06         1.71577e+08
    3.27              313538              465.44        -6.32116e+06         1.71532e+08
    3.29              313107             464.897        -6.31695e+06         1.71486e+08
    3.31              312674              464.35         -6.3127e+06         1.71439e+08
    3.33              312238             463.799        -6.30841e+06         1.71391e+08
    3.35              311800             463.245        -6.30409e+06         1.71343e+08
    3.37              311360             462.686        -6.29973e+06         1.71293e+08
    3.39              310918             462.123        -6.29532e+06         1.71243e+08
    3.41              310473             461.557        -6.29088e+06         1.71192e+08
    3.43              310027             460.986         -6.2864e+06          1.7114e+08
    3.45              309577             460.412        -6.28188e+06         1.71087e+08
    3.47              309126             459.833        -6.27733e+06         1.71033e+08
    3.49              308673             459.251        -6.27273e+06         1.70978e+08
    3.51              308217             458.665        -6.26809e+06         1.70922e+08
    3.53              307759             458.074        -6.26341e+06         1.70865e+08
    3.55              307299              457.48        -6.25869e+06         1.70808e+08
    3.57              306837             456.882        -6.25393e+06         1.70749e+08
    3.59              306372              456.28        -6.24914e+06         1.70689e+08
    3.61              305905             455.674         -6.2443e+06         1.70629e+08
    3.63              305437             455.064        -6.23942e+06         1.70567e+08
    3.65              304966              454.45         -6.2345e+06         1.70505e+08
    3.67              304492             453.832        -6.22954e+06         1.70441e+08
    3.69              304017              453.21        -6.22453e+06         1.70377e+08
    3.71              303540             452.585        -6.21949e+06         1.70311e+08
    3.73              303060             451.955         -6.2144e+06         1.70244e+08
    3.75              302578             451.322        -6.20928e+06         1.70177e+08
    3.77              302094             450.684        -6.20411e+06         1.70108e+08
    3.79              301608             450.043         -6.1989e+06         1.70038e+08
    3.81              301120             449.397        -6.19364e+06         1.69968e+08
    3.83              300630             448.748        -6.18835e+06         1.69896e+08
    3.85              300137             448.095        -6.18301e+06         1.69823e+08
    3.87              299643             447.438        -6.17763e+06         1.69749e+08
    3.89              299146             446.777        -6.17221e+06         1.69674e+08
    3.91              298648             446.112        -6.16675e+06         1.69598e+08
    3.93              298147             445.444        -6.16124e+06         1.69521e+08
    3.95              297644             444.771        -6.15569e+06         1.69442e+08
    3.97              297140             444.095         -6.1501e+06         1.69363e+08
    3.99              296633             443.415        -6.14446e+06         1.69282e+08
    4.01              296124             442.731        -6.13878e+06         1.69201e+08
    4.03              295613             442.043        -6.13306e+06         1.69118e+08
    4.05              295100             441.351        -6.12729e+06         1.69034e+08
    4.07              294585             440.655        -6.12148e+06         1.68949e+08
    4.09              294068             439.956        -6.11563e+06         1.68862e+08
    4.11              293549             439.252        -6.10973e+06         1.68775e+08
    4.13              293028             438.545        -6.10379e+06         1.68686e+08
    4.15              292505             437.834         -6.0978e+06         1.68597e+08
    4.17              291981              437.12        -6.09177e+06         1.68506e+08
    4.19              291454             436.401        -6.08569e+06         1.68414e+08
    4.21              290925             435.679        -6.07957e+06          1.6832e+08
    4.23              290394             434.953        -6.07341e+06         1.68226e+08
    4.25              289861             434.223         -6.0672e+06          1.6813e+08
    4.27              289327              433.49        -6.06095e+06         1.68033e+08
    4.29              288790             432.753        -6.05465e+06         1.67935e+08
    4.31              288252             432.012        -6.04831e+06         1.67836e+08
    4.33              287711             431.267        -6.04192e+06         1.67735e+08
    4.35              287169             430.519        -6.03549e+06         1.67633e+08
    4.37              286625             429.767        -6.02901e+06          1.6753e+08
    4.39              286079             429.011        -6.02249e+06         1.67426e+08
    4.41              285531             428.252        -6.01592e+06          1.6732e+08
    4.43              284981             427.489         -6.0093e+06         1.67213e+08
    4.45              284429             426.722        -6.00264e+06         1.67105e+08
